r[mm], Y_v[-], T_g[K], V_g[mkm/s]
4.0, 0.2303991648192416, 232.0172008223285, 0.8494316231377077
4.04, 0.22890181543915578, 234.62546251094636, 0.8412937882607433
4.08, 0.22743063437330568, 237.18756626922323, 0.833144689135333
4.12, 0.22598494488488563, 239.7047219846263, 0.824994250993579
4.16, 0.22456409324653415, 242.17809780221933, 0.8168514798104004
4.2, 0.22316744777660114, 244.6088219011731, 0.8087245391885142
4.24, 0.22179439792311495, 246.99798418177807, 0.8006208206226382
4.28, 0.22044435339274104, 249.34663786815236, 0.7925470077482238
4.32, 0.21911674332219355, 251.65580103148204, 0.7845091351207576
4.36, 0.21781101548972448, 253.92645803833557, 0.7765126420187656
4.4, 0.2165266355644634, 256.15956092829083, 0.7685624217161049
4.44, 0.2152630863915198, 258.3560307248449, 0.7606628666265337
4.4799999999999995, 0.21401986731088973, 260.51675868333314, 0.7528179096853345
4.52, 0.21279649350832874, 262.64260747933395, 0.7450310622983273
4.56, 0.21159249539646752, 264.7344123408361, 0.7373054491577691
4.6, 0.21040741802454688, 266.7929821272328, 0.7296438401967729
4.64, 0.20924082051525184, 268.8191003580164, 0.722048679928808
4.68, 0.20809227552721254, 270.8135261938796, 0.7145221143962793
4.720000000000001, 0.20696136874182525, 272.7769953727625, 0.7070660159317724
4.760000000000001, 0.20584769837312689, 274.7102211032252, 0.6996820059171388
4.800000000000001, 0.20475087469953124, 276.6138949173942, 0.69237147570898
4.84, 0.203670519616303, 278.4886874855888, 0.6851356058840226
4.88, 0.2026062662077126, 280.33524939461586, 0.6779753839442889
4.92, 0.20155775833787415, 282.15421189160224, 0.6708916206096222
4.96, 0.20052465025932686, 283.94618759511695, 0.6638849648139361
5.0, 0.1995066062384735, 285.71177117525895, 0.6569559175114912
5.04, 0.19850330019703777, 287.45154000425646, 0.6501048443902198
5.079999999999999, 0.1975144153687528, 289.1660547790657, 0.6433319875808451
5.119999999999999, 0.19653964397053347, 290.85586011735177, 0.6366374764429098
5.159999999999999, 0.19557868688742774, 292.5214851281735, 0.6300213375019619
5.2, 0.19463125337068254, 294.1634439586019, 0.6234835036058377
5.24, 0.19369706074829263, 295.7822363174555, 0.6170238223623102
5.28, 0.19277583414743893, 297.37834797724645, 0.6106420639151195
5.32, 0.19186730622825077, 298.95225125539855, 0.6043379281107154
5.36, 0.19097121692836172, 300.5044054757104, 0.59811105110365
5.4, 0.19008731321775063, 302.0352574110134, 0.5919610114446815
5.44, 0.18921534886339253, 303.5452417079023, 0.5858873356919864
5.48, 0.18835508420326597, 305.03478129438236, 0.5798895035826326
5.52, 0.18750628592928542, 306.5042877712217, 0.5739669527984191
5.56, 0.1866687268787538, 307.95416178776486, 0.568119083357461
5.6, 0.1858421858339484, 309.3847934029218, 0.56234526166038
5.64, 0.18502644732947326, 310.79656243200543, 0.5566448242176404
5.68, 0.18422130146703108, 312.18983878005974, 0.5510170810824706
5.72, 0.18342654373728406, 313.5649827622892, 0.5454613190118852
5.76, 0.18264197484849087, 314.9223454121616, 0.5399768043765203
5.8, 0.1818674005616211, 316.262268777738, 0.5345627858384092
5.84, 0.18110263153166484, 317.58508620674684, 0.5292184968142948
5.88, 0.1803474831548687, 318.89112262089793, 0.5239431577407292
5.92, 0.17960177542164124, 320.18069477990457, 0.5187359781559445
5.96, 0.17886533277488625, 321.45411153566283, 0.5135961586123209
6.0, 0.17813798397353087, 322.7116740770084, 0.5085228924322152
6.04, 0.17741956196102937, 323.95367616546173, 0.5035153673189477
6.08, 0.1767099037386326, 325.1804043623374, 0.49857276683382273
6.12, 0.17600885024322266, 326.39213824759054, 0.49369427174925207
6.159999999999999, 0.1753162462295239, 327.58915063074346, 0.48887906128727604
6.2, 0.17463194015650774, 328.771707754227, 0.48412631425208097
6.24, 0.17395578407781975, 329.9400694894507, 0.47943521006446027
6.28, 0.17328763353606302, 331.09448952590355, 0.4748049297055728
6.32, 0.1726273474607818, 332.2352155535714, 0.4702346565768023
6.359999999999999, 0.1719747880699959, 333.3624894389459, 0.46572357728201463
6.3999999999999995, 0.1713298207751407, 334.4765473948837, 0.4612708823380364
6.4399999999999995, 0.1706923140892791, 335.57762014456284, 0.4568757668187515
6.4799999999999995, 0.17006213953845462, 336.6659330797829, 0.45253743093782095
6.52, 0.1694391715760588, 337.74170641382216, 0.4482550805746369
6.56, 0.16882328750009812, 338.805155329077, 0.44402792774781197
6.6, 0.16821436737324313, 339.85649011968735, 0.4398551910401681
6.64, 0.16761229394555455, 340.89591632934616, 0.4357360959789123
6.680000000000001, 0.167016952579781, 341.92363488447927, 0.43166987537440277
6.720000000000001, 0.16642823117912842, 342.9398422229774, 0.4276557696206758
6.760000000000001, 0.16584602011740923, 343.94473041865285, 0.4236930269606594
6.8, 0.16527021217147786, 344.9384873015829, 0.4197809037187966
6.84, 0.16470070245586754, 345.9212965744996, 0.41591866450359527
6.88, 0.16413738835954417, 346.8933379253772, 0.41210558238244777
6.92, 0.163580169484699, 347.85478713635666, 0.4083409390308826
6.96, 0.16302894758750364, 348.80581618915176, 0.40462402485826415
6.999999999999999, 0.16248362652075365, 349.74659336706145, 0.4009541391118032
7.039999999999999, 0.1619441121783325, 350.6772833537225, 0.3973305899606114
7.079999999999999, 0.1614103124414279, 351.59804732871544, 0.3937526945614022
7.119999999999999, 0.16088213712643706, 352.50904306014627, 0.3902197791073308
7.16, 0.16035949793449833, 353.41042499431205, 0.3867311788613526
7.2, 0.15984230840259217, 354.3023443425568, 0.383286238175383
7.24, 0.1593304838561539, 355.18494916541886, 0.37988431049644583
7.28, 0.1588239413631436, 356.0583844541702, 0.37652475836091576
7.32, 0.15832259968952211, 356.9227922098412, 0.37320695337787857
7.36, 0.15782637925608345, 357.77831151981445, 0.3699302762025507
7.4, 0.15733520209659446, 358.625078632087, 0.3666941165006511
7.4399999999999995, 0.15684899181719703, 359.4632270272673, 0.36349787290452495
7.4799999999999995, 0.15636767355702885, 360.2928874884028, 0.3603409529617941
7.52, 0.15589117395001872, 361.1141881686999, 0.35722277307721556
7.56, 0.15541942108781825, 361.92725465722333, 0.3541427584484188
7.6, 0.15495234448382833, 362.73221004263087, 0.35110034299610327
7.639999999999999, 0.15448987503828482, 363.5291749750245, 0.34809496928927164
7.68, 0.154031945004366, 364.3182677259733, 0.34512608846600334
7.72, 0.15357848795528806, 365.09960424677774, 0.3421931601502562
7.76, 0.15312943875235452, 365.87329822502625, 0.3392956523651268
7.8, 0.15268473351392775, 366.6394611395126, 0.33643304144299396
7.84, 0.15224430958529245, 367.39820231356225, 0.33360481193291236
7.88, 0.15180810550937984, 368.1496289668221, 0.3308104565056123
7.92, 0.15137606099832546, 368.89384626556466, 0.3280494758564251
7.96, 0.15094811690583265, 369.63095737156254, 0.32532137860644167
8.0, 0.150524215200315, 370.3610634895681, 0.32262568120216734
8.04, 0.15010429893879196, 371.08426391345665, 0.3199619078139385
8.08, 0.14968831224151458, 371.80065607106917, 0.31732959023332996
8.12, 0.14927620026729616, 372.51033556779885, 0.3147282677697699
8.16, 0.14886790918952553, 373.2133962289654, 0.31215748714656205
8.2, 0.14846338617284205, 373.9099301410115, 0.30961680239649986
8.24, 0.14806257935044853, 374.60002769156245, 0.3071057747572333
8.28, 0.1476654378020461, 375.2837776083843, 0.30462397256655355
8.319999999999999, 0.14727191153236674, 375.9612669972753, 0.3021709711577256
8.36, 0.1468819514502876, 376.6325813789276, 0.2997463527550084
8.4, 0.14649550934850808, 377.2978047247857, 0.2973497063694712
8.44, 0.1461125378837711, 377.95701949193835, 0.29498062769522143
8.48, 0.1457329905576138, 378.6103066570736, 0.2926387190061388
8.52, 0.14535682169762865, 379.25774574952266, 0.2903235890532054
8.56, 0.1449839864392216, 379.8994148834272, 0.28803485296251563
8.6, 0.14461444070785057, 380.53539078904896, 0.28577213213403374
8.64, 0.14424814120172902, 381.16574884325564, 0.283535054141172
8.68, 0.14388504537498337, 381.79056309920406, 0.2813232526312449
8.719999999999999, 0.14352511142124713, 382.4099063152462, 0.27913636722685414
8.76, 0.14316829825767985, 383.0238499830821, 0.2769740434282527
8.799999999999999, 0.1428145655093992, 383.6324643551807, 0.2748359325167308
8.84, 0.14246387349431222, 384.2358184714949, 0.27272169145905995
8.879999999999999, 0.14211618320833463, 384.8339801854854, 0.27063098281303155
8.920000000000002, 0.1417714563109863, 385.42701618948104, 0.26856347463411406
8.959999999999999, 0.14142965511135275, 386.0149920393892, 0.26651884038326057
9.0, 0.14109074255440024, 386.5979721787803, 0.2644967588358805
9.04, 0.14075468220763543, 387.17601996236317, 0.2624969139920026
9.08, 0.14042143824809927, 387.7491976788656, 0.2605189949876349
9.12, 0.1400909754496854, 388.3175665733452, 0.2585626960073425
9.16, 0.13976325917077248, 388.88118686893995, 0.25662771619804775
9.2, 0.13943825534216414, 389.4401177880777, 0.254713759584061
9.24, 0.13911593045532444, 389.9944175731621, 0.25282053498335083
9.28, 0.13879625155090336, 390.5441435067428, 0.25094775592504787
9.319999999999999, 0.1384791862075414, 391.08935193119805, 0.2490951405681978
9.36, 0.13816470253094748, 391.63009826792677, 0.24726241162174584
9.399999999999999, 0.13785276914324163, 392.16643703607906, 0.24544929626576747
9.440000000000001, 0.13754335517255445, 392.69842187082804, 0.24365552607392715
9.479999999999999, 0.13723643024287702, 393.2261055412023, 0.241880836937173
9.520000000000001, 0.13693196446415412, 393.74953996748536, 0.24012496898864938
9.559999999999999, 0.13662992842261323, 394.26877623820246, 0.23838766652983343
9.6, 0.13633029317132417, 394.7838646266973, 0.23666867795787352
9.639999999999999, 0.136033030220981, 395.29485460731576, 0.23496775569413278
9.68, 0.13573811153090287, 395.8017948712054, 0.23328465611391946
9.719999999999999, 0.1354455095002447, 396.30473334174303, 0.2316191394773992
9.76, 0.13515519695941447, 396.8037171895962, 0.22997096986167256
9.799999999999999, 0.13486714716169002, 397.29879284743674, 0.22833991509401308
9.84, 0.1345813337750309, 397.7900060243055, 0.22672574668624626
9.879999999999999, 0.13429773087407915, 398.2774017196475, 0.22512823977026203
9.92, 0.13401631293234462, 398.76102423701695, 0.22354717303464341
9.96, 0.1337370548145702, 399.24091719747275, 0.22198232866240364
9.999999999999998, 0.13345993176926974, 399.71712355265845, 0.22043349226980957
10.040000000000001, 0.13318491942143829, 400.1896855975897, 0.21890045284628543
10.079999999999998, 0.13291199376542673, 400.6586449831443, 0.21738300269537797
10.120000000000001, 0.1326411311579767, 401.1240427282719, 0.2158809373767682
10.159999999999998, 0.132372308311414, 401.58591923192625, 0.21439405564931932
10.200000000000001, 0.13210550228699292, 402.0443142847271, 0.21292215941513912
10.239999999999998, 0.13184069048839153, 402.4992670803608, 0.21146505366464927
10.28, 0.13157785065534966, 402.9508162267284, 0.21002254642264204
10.319999999999999, 0.1313169608574497, 403.39899975683966, 0.20859444869531005
10.36, 0.13105799948803387, 403.8438551394679, 0.20718057441823406
10.4, 0.13080094525825625, 404.2854192895711, 0.20578074040531663
10.44, 0.1305457771912646, 404.7237285784777, 0.20439476629864084
10.48, 0.13029247461651028, 405.1588188438536, 0.2030224745192457
10.52, 0.1300410171641816, 405.5907253994478, 0.2016636902187978
10.56, 0.12979138475975793, 406.0194830446271, 0.20031824123214803
10.599999999999998, 0.12954355761868208, 406.44512607370143, 0.19898595803075694
10.64, 0.1292975162411475, 406.8676882850491, 0.19766667367697377
10.679999999999998, 0.12905324140699692, 407.28720299004453, 0.19636022377915718
10.72, 0.12881071417073064, 407.70370302179344, 0.19506644644761878
10.759999999999998, 0.12856991585662125, 408.11722074368026, 0.19378518225138006
10.8, 0.12833082805393214, 408.52778805773505, 0.1925162741757247
10.839999999999998, 0.1280934326122375, 408.93543641282076, 0.19125956758053542
10.879999999999999, 0.12785771163684, 409.34019681264635, 0.1900149101593975
10.92, 0.12762364748428667, 409.7420998236116, 0.18878215189946038
10.959999999999999, 0.12739122275797743, 410.14117558248745, 0.1875611450420393
11.0, 0.12716042030386543, 410.5374538039332, 0.18635174404394614
11.04, 0.1269312232062474, 410.9309637878564, 0.1851538055395346
11.08, 0.12670361478364112, 411.3217344266227, 0.18396718830344946
11.12, 0.12647757858474806, 411.7097942121127, 0.1827917532140636
11.16, 0.1262530983844986, 412.09517124263175, 0.18162736321759124
11.2, 0.12603015818018015, 412.4778932296822, 0.1804738832928679
11.24, 0.12580874218764204, 412.8579875045916, 0.1793311804167799
11.279999999999998, 0.12558883483758054, 413.2354810250058, 0.17819912353033399
11.32, 0.12537042077189653, 413.61040038125384, 0.17707758350535596
11.36, 0.12515348484012945, 413.98277180257674, 0.17596643311180457
11.4, 0.12493801209596145, 414.35262116323383, 0.17486554698568857
11.44, 0.12472398779379346, 414.7199739884868, 0.17377480159758055
11.48, 0.12451139738538797, 415.08485546045904, 0.17269407522170777
11.52, 0.12430022651658068, 415.4472904238819, 0.17162324790561856
11.559999999999999, 0.12409046102405674, 415.8073033917217, 0.17056220144040524
11.6, 0.12388208693219127, 416.164918550699, 0.16951081933147868
11.639999999999999, 0.12367509044995217, 416.52015976669327, 0.16846898676988037
11.68, 0.12346945796786468, 416.8730505900444, 0.1674365906041238
11.719999999999999, 0.12326517605503418, 417.22361426074804, 0.1664135193125542
11.76, 0.1230622314562293, 417.5718737135476, 0.1653996629762172
11.799999999999999, 0.12286061108902058, 417.91785158292896, 0.16439491325222552
11.84, 0.12266030204097478, 418.2615702080152, 0.16339916334761592
11.88, 0.12246129156690477, 418.60305163736666, 0.16241230799368517
11.92, 0.1222635670861717, 418.94231763368725, 0.16143424342079685
11.96, 0.12206711618003951, 419.2793896784415, 0.16046486733365004
12.0, 0.12187192658907975, 419.61428897638007, 0.1595040788870003
12.04, 0.12167798621062731, 419.9470364599797, 0.15855177866182465
12.079999999999998, 0.12148528309628359, 420.27765279379673, 0.1576078686419216
12.12, 0.12129380544946744, 420.6061583787391, 0.1566722521909387
12.159999999999998, 0.1211035416230134, 420.93257335625594, 0.15574483402981837
12.2, 0.12091448011681427, 421.2569176124457, 0.15482552021465365
12.239999999999998, 0.12072660957550851, 421.5792107820921, 0.15391421811494857
12.28, 0.12053991878621206, 421.8994722526163, 0.15301083639227056
12.319999999999999, 0.12035439667629055, 422.21772116796, 0.15211528497929203
12.36, 0.12017003231117562, 422.5339764323953, 0.15122747505921166
12.4, 0.11998681489221996, 422.8482567142605, 0.15034731904554638
12.44, 0.11980473375459355, 423.16058044962847, 0.14947473056229008
12.48, 0.11962377836521743, 423.47096584590645, 0.1486096244244296
12.52, 0.11944393832073741, 423.77943088536995, 0.14775191661881248
12.56, 0.11926520334553303, 424.0859933286274, 0.14690152428535758
12.6, 0.11908756328976511, 424.3906707180272, 0.14605836569860528
12.639999999999999, 0.11891100812745692, 424.6934803809968, 0.1452223602495973
12.679999999999998, 0.11873552795461229, 424.99443943332517, 0.14439342842808225
12.719999999999999, 0.11856111298736649, 425.2935647823788, 0.14357149180503798
12.759999999999998, 0.11838775356017117, 425.59087313026885, 0.14275647301550926
12.799999999999999, 0.11821544012401242, 425.8863809769505, 0.14194829574174794
12.84, 0.11804416324466016, 426.18010462327356, 0.1411468846966563
12.879999999999999, 0.11787391360094979, 426.4720601739764, 0.14035216560752403
12.92, 0.1177046819830937, 426.7622635406228, 0.13956406520005346
12.959999999999999, 0.11753645929102385, 427.05073044449, 0.13878251118266854
13.0, 0.11736923653276365, 427.337476419405, 0.13800743223110282
13.04, 0.11720300482282764, 427.6225168145256, 0.1372387579732571
13.08, 0.11703775538065164, 427.90586679707985, 0.1364764189743276
13.12, 0.11687347952904792, 428.18754135504923, 0.13572034672219374
13.16, 0.11671016869269002, 428.46755529980965, 0.13497047361306425
13.2, 0.11654781439662276, 428.7459232687229, 0.134226732937375
13.24, 0.11638640826479874, 429.02265972768555, 0.13348905886593457
13.28, 0.11622594201863956, 429.2977789736292, 0.13275738643631133
13.319999999999999, 0.11606640747562424, 429.57129513698237, 0.13203165153946045
13.36, 0.11590779654789896, 429.8432221840835, 0.13131179090658163
13.399999999999999, 0.11575010124091367, 430.11357391955653, 0.130597742096208
13.44, 0.1155933136520807, 430.382363988645, 0.12988944348151898
13.479999999999999, 0.1154374259694565, 430.64960587950236, 0.12918683423787228
13.52, 0.11528243047044695, 430.9153129254487, 0.12848985433055418
13.559999999999999, 0.11512831952053304, 431.1794983071809, 0.12779844450273906
13.6, 0.11497508557202052, 431.4421750549541, 0.12711254626365964
13.639999999999999, 0.11482272116280867, 431.7033560507184, 0.1264321018769793
13.68, 0.11467121891518173, 431.96305403022325, 0.1257570543493655
13.719999999999999, 0.1145205715346187, 432.2212815850844, 0.12508734741925878
13.76, 0.11437077180862609, 432.47805116481777, 0.1244229255458357
13.799999999999999, 0.11422181260558684, 432.73337507883525, 0.12376373389815876
13.84, 0.11407368687363173, 432.98726549841194, 0.12310971834451426
13.88, 0.11392638763952723, 433.2397344586175, 0.12246082544193021
13.919999999999998, 0.11377990800758342, 433.49079386021367, 0.12181700242587308
13.959999999999999, 0.11363424115857945, 433.7404554715249, 0.12117819720012085
13.999999999999998, 0.1134893803487067, 433.9887309302717, 0.1205443583268062
14.04, 0.11334531890852984, 434.2356317453796, 0.11991543501663005
14.079999999999998, 0.11320205024196417, 434.48116929875414, 0.11929137711923939
14.12, 0.11305956782527149, 434.7253548470285, 0.11867213511376838
14.159999999999998, 0.11291786520607017, 434.9681995232804, 0.11805766009953803
14.2, 0.11277693600236283, 435.20971433872455, 0.11744790378691321
14.239999999999998, 0.11263677390158033, 435.44991018437304, 0.11684281848831235
14.28, 0.11249737265963966, 435.68879783266993, 0.11624235710936791
14.32, 0.11235872610001829, 435.92638793910373, 0.11564647314023588
14.36, 0.1122208281128434, 436.1626910437849, 0.11505512064704812
14.4, 0.11208367265399533, 436.39771757300696, 0.11446825426350976
14.44, 0.1119472537442262, 436.63147784077546, 0.11388582918263411
14.48, 0.11181156546829152, 436.8639820503172, 0.11330780114861659
14.52, 0.11167660197409723, 437.0952402955618, 0.11273412644884205
14.56, 0.11154235747185848, 437.3252625626001, 0.11216476190602466
14.599999999999998, 0.11140882623327408, 437.5540587311234, 0.11159966487047882
14.639999999999999, 0.11127600259071158, 437.7816385758324, 0.111038793212515
14.679999999999998, 0.11114388093640715, 438.00801176783034, 0.11048210531496315
14.719999999999999, 0.11101245572167762, 438.2331878759901, 0.1099295600658173
14.759999999999998, 0.11088172145614394, 438.45717636830204, 0.10938111685100144
14.799999999999999, 0.11075167270696851, 438.67998661319916, 0.10883673554725358
14.84, 0.11062230409810281, 438.90162788086263, 0.10829637651512602
14.879999999999999, 0.11049361030954852, 439.1221093445047, 0.10776000059209948
14.92, 0.11036558607662794, 439.34144008163366, 0.10722756908580942
14.959999999999999, 0.11023822618926826, 439.5596290752983, 0.1066990437673826
15.0, 0.11011152549129466, 439.7766852153145, 0.10617438686488165
15.04, 0.10998547887973609, 439.9926172994692, 0.10565356105685483
15.08, 0.10986008130414071, 440.2074340347076, 0.10513652946599075
15.12, 0.10973532776590222, 440.42114403830556, 0.10462325565287567
15.16, 0.10961121331759671, 440.63375583901734, 0.10411370360985012
15.199999999999998, 0.10948773306232884, 440.84527787821025, 0.10360783775496497
15.239999999999998, 0.10936488215308926, 441.0557185109815, 0.10310562292603416
15.279999999999998, 0.10924265579212111, 441.2650860072563, 0.10260702437478268
15.319999999999999, 0.10912104923029597, 441.47338855286944, 0.10211200776108736
